id,cur_pos,cur_vel,error,goal_pos,target
0,-1.37919752685178E-06,-9.32849226275076E-07,1.37919752685178E-06,0,0.0001472483
1,-1.38828365603416E-06,-8.86542201873398E-07,1.38828365603416E-06,0,0.0001476938
2,-1.39685993882921E-06,-8.33717397707153E-07,1.39685993882921E-06,0,0.0001480232
3,-1.40490248323744E-06,-7.80110136146185E-07,1.40490248323744E-06,0,0.0001482914
4,-1.41243844442585E-06,-7.18323583011818E-07,1.41243844442585E-06,0,0.0001484271
5,-1.41937734721154E-06,-6.71670191990786E-07,1.41937734721154E-06,0,0.0001486544
6,-1.42580337314513E-06,-6.18577825080174E-07,1.42580337314513E-06,0,0.0001487661
7,-1.43169342070593E-06,-5.6478163100874E-07,1.43169342070593E-06,0,0.0001488172
8,-1.43707542488158E-06,-5.02884516730336E-07,1.43707542488158E-06,0,0.0001487364
9,-1.44185969386257E-06,-4.56198679636051E-07,1.44185969386257E-06,0,0.000148748
10,-1.44613119079651E-06,-4.0315170278182E-07,1.44613119079651E-06,0,0.0001486446
11,-1.44986758687793E-06,-3.49478410828092E-07,1.44986758687793E-06,0,0.0001484815
12,-1.45309759691514E-06,-2.87781384914828E-07,1.45309759691514E-06,0,0.0001481876
13,-1.45573229470841E-06,-2.41372451074108E-07,1.45573229470841E-06,0,0.000147987
14,-1.45785740901516E-06,-1.88678798916791E-07,1.45785740901516E-06,0,0.0001476725
15,-1.45945137486336E-06,-1.35434825684534E-07,1.45945137486336E-06,0,0.0001472995
16,-1.46054366556569E-06,-7.42426800557346E-08,1.46054366556569E-06,0,0.0001467968
17,-0.000001461,-2.84137169016969E-08,0.000001461,0,0.0001463888
18,-0.000001461,2.36253797211975E-08,0.000001461,0,0.0001458683
19,-1.46052004179609E-06,7.61407081032811E-08,1.46052004179609E-06,0,0.0001452906
20,-1.4595009263374E-06,1.36530694524389E-07,1.4595009263374E-06,0,0.0001445848
21,-1.45790038530436E-06,1.81484541059162E-07,1.45790038530436E-06,0,0.0001439752
22,-1.45580562005421E-06,2.32576153252516E-07,1.45580562005421E-06,0,0.0001432548
23,-1.45319653110931E-06,2.84072249238924E-07,1.45319653110931E-06,0,0.0001424789
24,-1.45010403951318E-06,3.43371902196835E-07,1.45010403951318E-06,0,0.0001415767
25,-1.44644141286676E-06,3.87164971415043E-07,1.44644141286676E-06,0,0.0001407725
26,-1.44229655418826E-06,0.000000437,1.44229655418826E-06,0,0.0001398594
27,-1.43765005766738E-06,4.87222571631661E-07,1.43765005766738E-06,0,0.0001388928
28,-1.43253353002137E-06,5.45154331099842E-07,1.43253353002137E-06,0,0.0001378018
29,-1.42686091830768E-06,5.87511947376547E-07,1.42686091830768E-06,0,0.000136811
30,-1.42072079878375E-06,6.3587078973346E-07,1.42072079878375E-06,0,0.0001357134
31,-1.41409442555585E-06,6.8449909454431E-07,1.41409442555585E-06,0,0.0001345645
32,-0.000001407,7.40797457916397E-07,0.000001407,0,0.0001332934
33,-1.39939430532365E-06,7.8145735633734E-07,1.39939430532365E-06,0,0.0001321249
34,-1.39132436594025E-06,8.28055001543672E-07,1.39132436594025E-06,0,0.0001308519
35,-1.38278613004417E-06,8.7485950373756E-07,1.38278613004417E-06,0,0.00012953
36,-1.37381248332957E-06,9.29272368860712E-07,1.37381248332957E-06,0,0.0001280885
37,-1.36431863140274E-06,0.000000968,1.36431863140274E-06,0,0.000126752
38,-1.35439439041818E-06,1.01257747933494E-06,1.35439439041818E-06,0,0.0001253137
39,-0.000001344,1.05731693956813E-06,0.000001344,0,0.0001238291
40,-1.33323564810439E-06,1.10960682809577E-06,1.33323564810439E-06,0,0.0001222275
41,-0.000001322,1.14614051545144E-06,0.000001322,0,0.0001207336
42,-1.3102568612311E-06,1.18849615332538E-06,1.3102568612311E-06,0,0.0001191407
43,-1.29813807880907E-06,1.23094482248937E-06,1.29813807880907E-06,0,0.0001175044
44,-1.28562805912225E-06,1.28089003853482E-06,1.28562805912225E-06,0,0.0001157539
45,-1.27264311799991E-06,0.000001315,1.27264311799991E-06,0,0.0001141141
46,-1.25927415517424E-06,1.35493256448384E-06,1.25927415517424E-06,0,0.0001123781
47,-1.24550471714002E-06,1.39488126631526E-06,1.24550471714002E-06,0,0.0001106017
48,-1.23136931673429E-06,1.44227690577343E-06,1.23136931673429E-06,0,0.0001087142
49,-1.21678475561993E-06,1.4738150290419E-06,1.21678475561993E-06,0,0.0001069403
50,-1.20184241669818E-06,1.51107596179866E-06,1.20184241669818E-06,0,0.0001050735
51,-1.18652631186933E-06,1.54833301532656E-06,1.18652631186933E-06,0,0.0001031693
52,-1.17087140871774E-06,0.000001593,1.17087140871774E-06,0,0.0001011572
53,-1.15479495654824E-06,1.62174938456981E-06,1.15479495654824E-06,0,0.000099262
54,-1.13838876814043E-06,1.65618690482838E-06,1.13838876814043E-06,0,0.000097277
55,-1.12163727727932E-06,1.69057897273401E-06,1.12163727727932E-06,0,9.52579354063232E-05
56,-1.10457586188772E-06,1.73233250979838E-06,1.10457586188772E-06,0,9.31342700738469E-05
57,-1.08712216739804E-06,1.75814543004657E-06,1.08712216739804E-06,0,9.11307693307606E-05
58,-1.06936839205929E-06,1.78960044194141E-06,1.06936839205929E-06,0,8.90408345277649E-05
59,-1.05129934269144E-06,0.000001821,1.05129934269144E-06,0,8.69202072095732E-05
60,-0.000001033,1.85967200049556E-06,0.000001033,0,8.46983604141371E-05
61,-1.01424063014832E-06,1.88239585925539E-06,1.01424063014832E-06,0,8.26001072873339E-05
62,-9.95261496328226E-07,1.91072876810046E-06,9.95261496328226E-07,0,8.041886498944E-05
63,-0.000000976,1.93894768547685E-06,0.000000976,0,7.82103717789084E-05
64,-9.56487644643289E-07,1.97446202939383E-06,9.56487644643289E-07,0,7.59041585141063E-05
65,-9.36647269966784E-07,0.000001994,9.36647269966784E-07,0,0.000073725
66,-9.16570179754217E-07,2.01906346478049E-06,9.16570179754217E-07,0,7.1466386586394E-05
67,-8.96241776793261E-07,0.000002044,8.96241776793261E-07,0,0.000069184
68,-8.75698368929534E-07,2.07623453050277E-06,8.75698368929534E-07,0,6.68075028187332E-05
69,-8.54858500431988E-07,2.09242675576368E-06,8.54858500431988E-07,0,6.4561592161283E-05
70,-8.33815221312761E-07,2.11417717427118E-06,8.33815221312761E-07,0,6.223975823616E-05
71,-8.1255415818049E-07,2.13576532220265E-06,8.1255415818049E-07,0,5.98977712762405E-05
72,-7.91111826714541E-07,2.16460317885452E-06,7.91111826714541E-07,0,5.74651643603374E-05
73,-7.69406966583119E-07,2.17739376128518E-06,7.69406966583119E-07,0,5.51667717729742E-05
74,-7.47532810763119E-07,2.19572486292422E-06,7.47532810763119E-07,0,0.000052796
75,-7.25475155505251E-07,2.21387730219412E-06,7.25475155505251E-07,0,5.04087536157272E-05
76,-7.03270672808287E-07,2.23926438748296E-06,7.03270672808287E-07,0,4.79344373083279E-05
77,-6.80838246225335E-07,2.24859041811922E-06,6.80838246225335E-07,0,4.559792703418E-05
78,-6.58271240183694E-07,2.26344449560356E-06,6.58271240183694E-07,0,4.31926874711053E-05
79,-6.35555567285451E-07,2.27810874999188E-06,6.35555567285451E-07,0,4.07744819241884E-05
80,-6.1272800344625E-07,0.0000023,6.1272800344625E-07,0,3.82728428505175E-05
81,-5.89707526366112E-07,2.30581717744288E-06,5.89707526366112E-07,0,3.59125928106607E-05
82,-5.66587575967503E-07,2.31715735230962E-06,5.66587575967503E-07,0,3.34871951501725E-05
83,-5.43354132354068E-07,2.32830172797918E-06,5.43354132354068E-07,0,3.10524110425092E-05
84,-0.00000052,2.3466661793433E-06,0.00000052,0,2.85377603326253E-05
85,-4.96576268105287E-07,0.000002349,4.96576268105287E-07,0,2.61680698443456E-05
86,-0.000000473,2.35676773971171E-06,0.000000473,0,2.37367697941693E-05
87,-4.49434208960042E-07,2.36438122092138E-06,4.49434208960042E-07,0,2.12996228654561E-05
88,-4.25782729074342E-07,2.37921521439178E-06,4.25782729074342E-07,0,1.87861579625803E-05
89,-0.000000402,0.000002378,0.000000402,0,1.64211297004613E-05
90,-3.78206165052575E-07,2.38226232590394E-06,3.78206165052575E-07,0,0.000013998
91,-3.5436047784998E-07,2.3863543176423E-06,3.5436047784998E-07,0,1.15725321769844E-05
92,-3.30508619583725E-07,2.39767232511037E-06,3.30508619583725E-07,0,9.0741924196891E-06
93,-3.06569543084834E-07,2.39292584591537E-06,3.06569543084834E-07,0,6.72774014276456E-06
94,-2.82636609227893E-07,2.39370899823024E-06,2.82636609227893E-07,0,4.32661302340875E-06
95,-2.58695691535138E-07,2.39430900235712E-06,2.58695691535138E-07,0,1.92653493158446E-06
96,-2.34783468222588E-07,2.40214547228912E-06,2.34783468222588E-07,0,-0.000000543
97,-2.10818793533463E-07,2.39392918291774E-06,2.10818793533463E-07,0,-2.85732681959416E-06
98,-1.86894898668299E-07,2.3912554287038E-06,1.86894898668299E-07,0,-0.000005223
99,-0.000000163,2.38841267887583E-06,0.000000163,0,-7.58424389957213E-06
100,-1.39163223167316E-07,2.3928217295781E-06,1.39163223167316E-07,0,-1.00116839263364E-05
101,-1.15310711201744E-07,2.38119476077022E-06,1.15310711201744E-07,0,-1.22806103952655E-05
102,-9.15330762296662E-08,2.37512832183178E-06,9.15330762296662E-08,0,-1.45975780796448E-05
103,-6.78159910449949E-08,2.36891254488981E-06,6.78159910449949E-08,0,-1.6906803246286E-05
104,-4.41960912311856E-08,0.00000237,4.41960912311856E-08,0,-1.92783233821103E-05
105,-2.05939683084466E-08,0.000002355,2.05939683084466E-08,0,-2.14835751854991E-05
106,0.000000003,2.34452966697837E-06,-0.000000003,0,-2.20773130443774E-05
107,2.63197987848685E-08,2.33607177846374E-06,-2.63197987848685E-08,0,-2.59873064401006E-05
108,4.9591944772942E-08,2.33388089043943E-06,-4.9591944772942E-08,0,-2.82966952980246E-05
109,7.28182198983518E-08,2.31568426711423E-06,-7.28182198983518E-08,0,-0.000030438
110,9.59046850823597E-08,2.30309479541049E-06,-9.59046850823597E-08,0,-0.000032621
111,1.18866051224131E-07,2.29040494131269E-06,-1.18866051224131E-07,0,-3.47904173025881E-05
112,1.41666379072092E-07,0.000002285,-1.41666379072092E-07,0,-3.70169018104605E-05
113,1.64387762957574E-07,2.26371285853465E-06,-1.64387762957574E-07,0,-3.90757885604387E-05
114,1.86937822554967E-07,0.000002248,-1.86937822554967E-07,0,-4.11739422112589E-05
115,2.09331821210412E-07,2.23227055681475E-06,-2.09331821210412E-07,0,-4.32558147522855E-05
116,2.31534238004372E-07,2.22387262118298E-06,-2.31534238004372E-07,0,-4.53921146892355E-05
117,2.53627515434118E-07,2.19954769935504E-06,-2.53627515434118E-07,0,-4.73581792448385E-05
118,2.75519655090761E-07,2.18089675250232E-06,-2.75519655090761E-07,0,-4.93608935059342E-05
119,2.97226273815454E-07,2.16221338880492E-06,-2.97226273815454E-07,0,-5.13447270478196E-05
120,3.1871222017088E-07,2.15092370175491E-06,-3.1871222017088E-07,0,-5.33804430880025E-05
121,3.40060301695644E-07,2.12374442981024E-06,-3.40060301695644E-07,0,-5.5243441998698E-05
122,3.61178909003002E-07,2.10227737145185E-06,-3.61178909003002E-07,0,-5.71406477689607E-05
123,3.82084044403541E-07,2.08081700730393E-06,-3.82084044403541E-07,0,-5.90165596392467E-05
124,4.02740955252057E-07,2.06679027005558E-06,-4.02740955252057E-07,0,-0.000060942
125,4.23232848767441E-07,2.03691476102067E-06,-4.23232848767441E-07,0,-6.26924223645631E-05
126,4.43468532118629E-07,2.01279305852428E-06,-4.43468532118629E-07,0,-6.44747614408914E-05
127,4.63464430389138E-07,1.98872046915346E-06,-4.63464430389138E-07,0,-6.62336371526351E-05
128,4.8318621814758E-07,1.97212468137634E-06,-4.8318621814758E-07,0,-6.80398686725425E-05
129,5.02717536043917E-07,1.9397240818274E-06,-5.02717536043917E-07,0,-0.000069669
130,0.000000522,1.91312197801837E-06,-0.000000522,0,-0.000071328
131,0.000000541,1.88661439389452E-06,-0.000000541,0,-7.29614752614793E-05
132,5.59640954023166E-07,1.86762972587763E-06,-5.59640954023166E-07,0,-7.46404003493239E-05
133,5.78114404348185E-07,1.83288705350402E-06,-5.78114404348185E-07,0,-7.61402988658233E-05
134,5.96283480369664E-07,0.000001804,-5.96283480369664E-07,0,-7.7668246500906E-05
135,6.14165531764854E-07,1.775236261543E-06,-6.14165531764854E-07,0,-7.91689038770471E-05
136,6.31727179900565E-07,1.75405383716989E-06,-6.31727179900565E-07,0,-8.07132647828723E-05
137,6.49053015777668E-07,1.71716275588693E-06,-6.49053015777668E-07,0,-8.20769168186075E-05
138,6.66053267650568E-07,1.68616756545341E-06,-6.66053267650568E-07,0,-0.000083467
139,6.82745787905503E-07,1.655365502178E-06,-6.82745787905503E-07,0,-8.48282350141005E-05
140,6.99097704170981E-07,1.63218613476118E-06,-6.99097704170981E-07,0,-8.62316387184592E-05
141,7.15194122591356E-07,1.59334968061204E-06,-7.15194122591356E-07,0,-8.74529067829144E-05
142,7.30945788340875E-07,1.56046118831292E-06,-7.30945788340875E-07,0,-8.86991897708356E-05
143,7.46371077831043E-07,1.52781837529985E-06,-7.46371077831043E-07,0,-8.99152865052599E-05
144,7.61437648044705E-07,1.50285127313577E-06,-7.61437648044705E-07,0,-9.11722854546326E-05
145,7.76231135368732E-07,1.46228055272825E-06,-7.76231135368732E-07,0,-9.22459142849164E-05
146,7.90662824101673E-07,1.42771167192713E-06,-7.90662824101673E-07,0,-9.3343395235479E-05
147,8.04751630667511E-07,1.39344274820833E-06,-8.04751630667511E-07,0,-9.44095811306056E-05
148,8.18465757390641E-07,1.36690419904047E-06,-8.18465757390641E-07,0,-9.55156149728964E-05
149,8.31891389552197E-07,1.32481705138087E-06,-8.31891389552197E-07,0,-9.6437305963093E-05
150,8.44940362121349E-07,1.28878709657752E-06,-8.44940362121349E-07,0,-9.73819047622726E-05
151,8.57632148409948E-07,1.25311277204019E-06,-8.57632148409948E-07,0,-9.82943465288599E-05
152,8.6993550763026E-07,1.22522478293123E-06,-8.6993550763026E-07,0,-9.92458033088894E-05
153,8.81937186392179E-07,1.18184443572456E-06,-8.81937186392179E-07,0,-0.0001000122
154,8.93549584546349E-07,1.14457777214255E-06,-8.93549584546349E-07,0,-0.0001008007
155,9.04792741174276E-07,1.10772345807389E-06,-9.04792741174276E-07,0,-0.0001015565
156,9.15635984810592E-07,1.07871241350853E-06,-9.15635984810592E-07,0,-0.0001023507
157,9.26166630499381E-07,1.03426612656209E-06,-9.26166630499381E-07,0,-0.0001029593
158,9.36297650966367E-07,0.000000996,-9.36297650966367E-07,0,-0.0001035897
159,0.000000946,9.5818526729909E-07,-0.000000946,0,-0.0001041868
160,9.55392557955292E-07,9.28280552990053E-07,-9.55392557955292E-07,0,-0.0001048221
161,9.64414240023359E-07,0.000000883,-9.64414240023359E-07,0,-0.0001052714
162,0.000000973,8.43944656666257E-07,-0.000000973,0,-0.0001057423
163,9.81255790399871E-07,8.05418646850426E-07,-9.81255790399871E-07,0,-0.0001061798
164,9.89067332035631E-07,7.74851294622704E-07,-9.89067332035631E-07,0,-0.0001066553
165,9.96551347220986E-07,0.000000729,-9.96551347220986E-07,0,-0.0001069448
166,1.00362196597814E-06,6.89363699538181E-07,-1.00362196597814E-06,0,-0.0001072558
167,1.01030095489563E-06,6.50348596106577E-07,-1.01030095489563E-06,0,-0.0001075336
168,1.01655937623235E-06,6.19349942979439E-07,-1.01655937623235E-06,0,-0.0001078494
169,1.02248627609214E-06,5.73089290061431E-07,-1.02248627609214E-06,0,-0.0001079795
170,0.000001028,5.33172834714533E-07,-0.000001028,0,-0.0001081314
171,1.03311197285905E-06,4.93899326198099E-07,-1.03311197285905E-06,0,-0.0001082502
172,1.03780474880466E-06,4.6269967727567E-07,-1.03780474880466E-06,0,-0.0001084075
173,1.04216430862891E-06,4.16295285788976E-07,-1.04216430862891E-06,0,-0.0001083794
174,1.04610592899235E-06,3.7629218739072E-07,-1.04610592899235E-06,0,-0.0001083735
175,1.04965252489819E-06,0.000000337,-1.04965252489819E-06,0,-0.0001083351
176,1.05277629902645E-06,3.05816262687422E-07,-1.05277629902645E-06,0,-0.0001083358
177,1.05556743701385E-06,2.59495310062338E-07,-1.05556743701385E-06,0,-0.0001081517
178,1.05794178040242E-06,2.19631890030137E-07,-1.05794178040242E-06,0,-0.0001079905
179,1.05992280374778E-06,1.80524291139697E-07,-1.05992280374778E-06,0,-0.0001077975
180,1.06148326750599E-06,1.49602934156122E-07,-1.06148326750599E-06,0,-0.0001076444
181,1.06271391420165E-06,1.0358868743633E-07,-1.06271391420165E-06,0,-0.0001073073
182,1.0635311360474E-06,6.40870370025472E-08,-1.0635311360474E-06,0,-0.000106994
183,0.000001064,2.53959207521231E-08,-0.000001064,0,-0.0001066499
184,0.000001064,-5.05459848037727E-09,-0.000001064,0,-0.0001063465
185,1.06365759577898E-06,-5.05440135089968E-08,-1.06365759577898E-06,0,-0.0001058603
186,1.06293662760493E-06,-8.94672560326249E-08,-1.06293662760493E-06,0,-0.000105399
187,1.06183233583579E-06,-1.27526780591538E-07,-1.06183233583579E-06,0,-0.000104908
188,1.06031855473532E-06,-1.57292977894063E-07,-1.06031855473532E-06,0,-0.0001044589
189,1.05848709175405E-06,-0.000000202,-1.05848709175405E-06,0,-0.0001038282
190,1.056255401366E-06,-2.4018054616686E-07,-1.056255401366E-06,0,-0.0001032237
191,1.05364855329526E-06,-2.7740026644475E-07,-1.05364855329526E-06,0,-0.0001025908
192,1.05064089339635E-06,-3.06275780438021E-07,-1.05064089339635E-06,0,-0.0001020013
193,1.04732473893421E-06,-3.50087579222873E-07,-1.04732473893421E-06,0,-0.0001012316
194,1.04361803821007E-06,-3.87231556066239E-07,-1.04361803821007E-06,0,-0.0001004895
195,1.03954636010428E-06,-4.23411223023497E-07,-1.03954636010428E-06,0,-9.97205118480338E-05
196,1.03508454074586E-06,-4.51197988256687E-07,-1.03508454074586E-06,0,-9.89964721753722E-05
197,1.03032537701608E-06,-4.93872898893089E-07,-1.03032537701608E-06,0,-9.80938215988658E-05
198,1.0251872986089E-06,-5.29832491233819E-07,-1.0251872986089E-06,0,-9.72204080795791E-05
199,1.01969634513921E-06,-5.64780833372174E-07,-1.01969634513921E-06,0,-9.63218322880266E-05
200,1.01382781814152E-06,-5.91290004641084E-07,-1.01382781814152E-06,0,-9.54698760935457E-05
201,1.00767497457355E-06,-6.32641661946669E-07,-1.00767497457355E-06,0,-9.44410736281043E-05
202,1.00115669887657E-06,-6.67232985287985E-07,-1.00115669887657E-06,0,-9.34433538546386E-05
203,9.94299472978355E-07,-7.00768734029737E-07,-9.94299472978355E-07,0,-9.24222550935383E-05
204,9.87079040726258E-07,-7.25821634149632E-07,-9.87079040726258E-07,0,-9.14496922632679E-05
205,9.79589092509059E-07,-7.65674064272295E-07,-9.79589092509059E-07,0,-9.03021717846286E-05
206,9.71748933764616E-07,-7.98723891821313E-07,-9.71748933764616E-07,0,-8.91876469566455E-05
207,9.63585472746331E-07,-8.30676598429256E-07,-9.63585472746331E-07,0,-8.80517697865457E-05
208,9.55074861863636E-07,-8.54105643035854E-07,-9.55074861863636E-07,0,-8.69664427582961E-05
209,9.463111911856E-07,-8.92294139679457E-07,-9.463111911856E-07,0,-8.57081767335899E-05
210,9.37214169383083E-07,-9.23640706128074E-07,-9.37214169383083E-07,0,-0.000084485
211,9.27811088402564E-07,-9.53851601991034E-07,-9.27811088402564E-07,0,-8.32425877561604E-05
212,9.18078484346552E-07,-9.7550103910759E-07,-9.18078484346552E-07,0,-8.20528427425415E-05
213,9.08110822095409E-07,-1.01187293076409E-06,-9.08110822095409E-07,0,-8.06923496909917E-05
214,8.97828172696791E-07,-1.04136670964199E-06,-8.97828172696791E-07,0,-7.93691384615158E-05
215,8.87258188697615E-07,-1.06968938193324E-06,-8.87258188697615E-07,0,-7.80289354906927E-05
216,8.76377752589974E-07,-1.08941603751387E-06,-8.76377752589974E-07,0,-7.67436274529132E-05
217,8.65281675643814E-07,-1.12383140672191E-06,-8.65281675643814E-07,0,-7.52898506206634E-05
218,8.53890357532805E-07,-1.15133571077097E-06,-8.53890357532805E-07,0,-7.38756854801181E-05
219,8.42231775877167E-07,-1.17763686762523E-06,-8.42231775877167E-07,0,-7.24468021573443E-05
220,8.30283131136866E-07,-1.19531076613453E-06,-8.30283131136866E-07,0,-7.10752079413623E-05
221,8.18139538338869E-07,-1.22764299362134E-06,-8.18139538338869E-07,0,-6.95375339532234E-05
222,8.05721700913864E-07,-0.000001253,-8.05721700913864E-07,0,-6.80418200005306E-05
223,7.9305788425188E-07,-1.27719458159122E-06,-7.9305788425188E-07,0,-6.65338538041738E-05
224,7.80125569477264E-07,-1.2926994756077E-06,-7.80125569477264E-07,0,-6.50855819017693E-05
225,0.000000767,-1.32283585412344E-06,-0.000000767,0,-6.34736627702637E-05
226,7.53662577679393E-07,-0.000001346,-7.53662577679393E-07,0,-6.19061980344782E-05
227,7.4008138994941E-07,-1.36791875059321E-06,-7.4008138994941E-07,0,-0.000060329
228,7.26254302918505E-07,-1.3811526166441E-06,-7.26254302918505E-07,0,-5.88139005941457E-05
229,7.12276950309843E-07,-0.000001409,-7.12276950309843E-07,0,-5.71377391622718E-05
230,6.98070518723171E-07,-1.42984799302832E-06,-6.98070518723171E-07,0,-5.55085694742274E-05
231,6.83663749612151E-07,-1.44942300295961E-06,-6.83663749612151E-07,0,-5.38721380394236E-05
232,0.000000669,-1.46029836875074E-06,-0.000000669,0,-5.2300490160917E-05
233,6.54278830225508E-07,-1.48576241976552E-06,-6.54278830225508E-07,0,-5.05702567821231E-05
234,6.393178910713E-07,-1.50421902040726E-06,-6.393178910713E-07,0,-4.88895993910887E-05
